,Tract ID,e(0),se(e(0)),Zip Code
0,6001400100,87.2,2.5534,94704
1,6001400200,81.5,1.0952,94705
2,6001400300,87.2,3.5274,94609
3,6001400400,82.9,1.8118,94609
4,6001400500,78.8,2.1647,94703
5,6001400600,78.6,2.4001,94609
6,6001400700,80.1,2.0179,94702
7,6001400800,76.9,1.5889,94608
8,6001400900,74.5,2.21,94608
9,6001401000,77.5,1.8596,94608
10,6001401100,80.3,3.0636,94609
11,6001401200,80.0,2.6913,94618
12,6001401300,75.8,1.7997,94609
13,6001401400,73.5,2.1014,94612
14,6001401500,77.3,2.8661,94608
15,6001401600,77.6,3.5769,94612
16,6001401800,77.6,2.0340000000000003,94607
17,6001402200,76.6,2.6682,94623
18,6001402400,78.1,3.2351,94607
19,6001402600,75.4,1.0475,94607
20,6001402700,77.5,2.0026,94612
21,6001402800,76.0,2.7737,94612
22,6001402900,79.6,3.0459,94612
23,6001403000,81.1,1.8675,94612
24,6001403100,80.0,1.5548,94612
25,6001403300,84.5,3.5298,94607
26,6001403400,81.9,1.6965,94604
27,6001403501,80.0,2.7671,94610
28,6001403502,79.4,3.2905,94611
29,6001403600,80.7,2.5415,94610
30,6001403701,84.4,2.0964,94612
31,6001403800,83.8,2.5121,94610
32,6001403900,86.9,3.2987,94610
33,6001404000,82.5,3.0159,94610
34,6001404101,82.7,1.7317,94611
35,6001404102,79.7,2.2063,94620
36,6001404200,84.2,1.8697,94611
37,6001404300,83.3,1.6555,94618
38,6001404400,83.5,1.7128,94618
39,6001404501,86.1,2.1925,94611
40,6001404502,82.4,1.3703,94611
41,6001404600,84.0,1.6452,94611
42,6001404700,82.5,1.6124,94602
43,6001404800,85.2,2.6753,94602
44,6001404900,85.8,2.9865,94610
45,6001405000,81.3,1.1745,94610
46,6001405100,82.4,1.4664,94610
47,6001405200,84.9,2.9202,94610
48,6001405301,80.0,1.7438,94606
49,6001405302,79.5,1.953,94606
50,6001405401,80.8,2.5199,94606
51,6001405402,76.0,2.4383,94606
52,6001405500,78.7,2.5516,94606
53,6001405600,78.2,1.7080000000000002,94610
54,6001405700,76.4,1.2541,94602
55,6001405800,76.6,1.7146,94606
56,6001405901,77.9,2.1514,94606
57,6001405902,77.7,2.2091,94606
58,6001406000,77.9,1.5139,94606
59,6001406100,76.2,1.4586,94606
60,6001406201,75.3,1.8887,94606
61,6001406202,77.4,2.0795,94601
62,6001406300,82.3,2.647,94601
63,6001406400,72.5,1.8017,94602
64,6001406500,81.1,2.2302,94602
65,6001406601,77.9,1.1891,94619
66,6001406602,80.4,3.0769,94602
67,6001406700,83.3,2.0496,94602
68,6001406800,79.7,1.5490000000000002,94602
69,6001406900,78.2,1.3937,94619
70,6001407000,77.1,1.9529,94619
71,6001407101,80.2,2.9558,94601
72,6001407102,81.6,2.5344,94619
73,6001407200,78.5,1.1938,94601
74,6001407300,73.9,2.1253,94621
75,6001407400,78.3,3.0512,94621
76,6001407500,71.7,2.312,94601
77,6001407600,74.2,1.1746,94601
78,6001407700,78.1,1.6435,94619
79,6001407800,82.3,2.5112,94613
80,6001407900,83.3,2.4552,94619
81,6001408000,79.5,0.9933,94602
82,6001408100,82.4,1.0992,94619
83,6001408200,76.8,2.6882,94605
84,6001408300,77.9,1.5346,94605
85,6001408400,75.3,1.3617,94605
86,6001408500,72.8,1.2943,94605
87,6001408600,76.7,1.8792,94605
88,6001408700,76.4,1.8021,94605
89,6001408800,74.0,1.6519,94621
90,6001408900,74.2,2.5196,94621
91,6001409000,74.6,1.7192,94614
92,6001409100,75.7,2.1078,94603
93,6001409200,73.8,2.1146,94603
94,6001409300,76.2,1.7703,94603
95,6001409400,76.2,2.135,94603
96,6001409500,75.2,2.6078,94621
97,6001409600,75.3,2.3014,94621
98,6001409700,72.9,1.9037,94605
99,6001409800,81.0,2.7329,94605
100,6001409900,83.2,1.9983,94605
101,6001410000,81.7,1.7818,94605
102,6001410100,76.4,1.2022,94605
103,6001410200,73.6,1.8917,94605
104,6001410300,75.5,2.0881,94603
105,6001410400,78.7,1.557,94603
106,6001410500,72.3,2.2377,94607
107,6001420100,82.0,1.4235,94706
108,6001420200,83.6,2.0513,94706
109,6001420300,81.9,1.6793,94706
110,6001420500,81.3,1.7237,94706
111,6001420600,83.5,2.4417,94706
112,6001421100,92.6,3.6665,94707
113,6001421200,86.2,1.6513,94707
114,6001421300,86.0,2.3204,94706
115,6001421400,81.2,0.7224,94709
116,6001421500,87.2,1.9853,94709
117,6001421600,88.3,1.8635,94708
118,6001421700,85.8,2.8271,94707
119,6001421800,85.7,2.3525,94707
120,6001421900,84.6,2.0284,94706
121,6001422000,79.9,2.0167,94706
122,6001422100,77.6,1.7026,94710
123,6001422200,84.7,3.0875,94702
124,6001422300,85.7,3.0389,94704
125,6001422400,80.4,1.848,94720
126,6001422500,81.5,1.9019,94708
127,6001422900,77.0,2.1787,94712
128,6001423000,83.8,1.7065,94704
129,6001423100,81.3,1.7855,94702
130,6001423200,78.5,2.0927,94702
131,6001423300,80.6,1.7217,94702
132,6001423400,80.3,2.3725,94703
133,6001423500,81.0,3.1046,94703
134,6001423700,88.6,2.388,94705
135,6001423800,87.7,2.2288,94618
136,6001423901,80.9,1.3931,94703
137,6001423902,81.5,1.6224,94609
138,6001424001,76.5,1.9624,94702
139,6001424002,79.1,3.2375,94702
140,6001425101,81.0,1.9502,94608
141,6001425102,80.9,1.5136,94608
142,6001425103,80.9,2.5065,94662
143,6001425104,80.0,1.3671,94608
144,6001426200,82.2,3.1556,94610
145,6001427100,80.9,1.4954,94501
146,6001427200,79.9,1.9184,94501
147,6001427300,78.0,1.2697,94501
148,6001427600,76.0,1.1740000000000002,94501
149,6001427700,78.9,1.4861,94501
150,6001427800,80.9,1.4003,94501
151,6001427900,82.0,2.2801,94501
152,6001428000,80.4,1.9028,94501
153,6001428100,80.3,1.3366,94501
154,6001428200,82.7,1.4977,94501
155,6001428301,81.5,1.0808,94502
156,6001428302,86.0,1.9424,94502
157,6001428400,79.9,1.3604,94501
158,6001428500,81.8,1.4278,94501
159,6001428600,80.2,1.3108,94501
160,6001428700,80.3,1.6721,94501
161,6001430101,82.2,1.6772,94552
162,6001430102,85.9,2.846,94619
163,6001430200,82.7,1.3656,94546
164,6001430300,82.1,1.3844,94546
165,6001430400,81.7,1.465,94546
166,6001430500,80.6,1.5934,94578
167,6001430600,82.1,1.6235,94546
168,6001430700,80.2,1.1686,94546
169,6001430800,82.8,2.0315,94546
170,6001430900,76.9,1.271,94546
171,6001431000,79.7,1.7171,94546
172,6001431100,76.8,2.0888,94546
173,6001431200,79.4,1.4625,94546
174,6001432100,78.4,1.6278,94577
175,6001432200,82.1,1.6825,94577
176,6001432300,80.9,1.5476,94577
177,6001432400,80.6,1.6033,94577
178,6001432501,81.4,1.7738,94577
179,6001432502,83.2,2.2637,94577
180,6001432600,78.1,1.1138,94577
181,6001432700,83.4,1.5944,94577
182,6001432800,81.5,1.3914,94577
183,6001433000,80.4,1.0822,94577
184,6001433102,78.5,1.4111,94578
185,6001433103,76.8,1.892,94578
186,6001433104,80.5,1.6196,94577
187,6001433200,81.1,1.942,94579
188,6001433300,79.9,1.7984,94579
189,6001433400,85.5,2.4014,94579
190,6001433500,81.3,1.8597,94577
191,6001433600,81.6,2.1076,94579
192,6001433700,79.1,2.4416,94541
193,6001433800,82.6,2.1479,94580
194,6001433900,78.7,2.1167,94578
195,6001434000,80.6,2.6138,94578
196,6001435102,80.8,1.2655,94542
197,6001435103,84.5,2.7738,94552
198,6001435200,78.0,1.7696,94541
199,6001435300,75.5,1.5852,94541
200,6001435400,77.5,1.3405,94541
201,6001435500,76.6,1.6673,94541
202,6001435601,73.0,1.5878,94541
203,6001435602,79.5,2.0295,94541
204,6001435700,83.3,2.2154,94541
205,6001435800,83.5,2.2141,94580
206,6001435900,80.9,1.0163,94580
207,6001436000,80.3,1.3214,94580
208,6001436100,81.4,1.4719,94541
209,6001436200,75.6,1.7135,94541
210,6001436300,80.7,3.0804,94541
211,6001436401,79.9,1.5511,94541
212,6001436402,83.3,1.3939,94541
213,6001436500,77.5,1.6178,94544
214,6001436601,79.2,1.5713,94544
215,6001436602,78.5,1.7942,94544
216,6001436700,81.1,1.5051,94544
217,6001436800,77.4,1.4119,94544
218,6001436900,79.7,2.1854,94541
219,6001437000,79.9,1.8675,94545
220,6001437101,81.4,1.7513,94545
221,6001437102,83.9,2.9055,94545
222,6001437200,80.7,1.5495,94545
223,6001437300,80.3,1.5390000000000001,94545
224,6001437400,84.3,2.0601,94544
225,6001437500,77.1,1.5371,94544
226,6001437600,78.0,1.5931,94544
227,6001437701,75.3,1.8744,94544
228,6001437800,83.6,2.4247,94544
229,6001437900,80.6,2.3958,94544
230,6001438000,82.2,2.235,94544
231,6001438100,80.6,1.3693,94544
232,6001438201,80.8,2.4915,94544
233,6001438203,78.1,2.3764,94587
234,6001438204,77.9,1.3156,94544
235,6001438300,79.2,1.1144,94545
236,6001438400,78.5,1.5927,94545
237,6001440100,80.3,1.3019,94552
238,6001440200,82.0,1.9041,94587
239,6001440301,82.4,2.4056,94544
240,6001440304,79.9,1.2673,94587
241,6001440305,81.1,1.5871,94587
242,6001440306,86.3,3.1272,94587
243,6001440307,82.3,1.5043,94587
244,6001440308,81.0,1.137,94587
245,6001440331,86.8,3.4565,94587
246,6001440332,80.8,1.2004,94587
247,6001440333,81.2,1.2314,94587
248,6001440334,82.7,3.3925,94587
249,6001440335,81.3,2.9188,94587
250,6001440336,82.7,2.2718,94587
251,6001441100,79.9,1.334,94536
252,6001441200,82.8,1.6767,94536
253,6001441301,81.2,1.4314,94536
254,6001441302,86.7,2.0477,94555
255,6001441401,81.1,1.5649,94555
256,6001441402,84.7,2.2979,94555
257,6001441501,88.5,3.6818,94587
258,6001441503,81.5,2.0409,94538
259,6001441521,83.1,1.8262,94555
260,6001441522,85.3,2.8054,94555
261,6001441523,81.2,2.5273,94555
262,6001441524,81.2,1.972,94555
263,6001441601,82.9,1.9422,94555
264,6001441602,83.9,1.787,94536
265,6001441700,85.0,3.7861,94537
266,6001441800,84.2,2.1031,94536
267,6001441921,80.4,1.9887,94538
268,6001441923,81.6,2.0062,94538
269,6001441924,83.5,1.9463,94536
270,6001441925,81.3,2.1907,94538
271,6001441926,80.5,2.3163,94538
272,6001441927,79.8,1.6019999999999999,94538
273,6001442000,89.1,3.3907,94539
274,6001442100,88.6,2.4446,94539
275,6001442301,80.1,2.0181,94538
276,6001442302,81.2,2.1545,94539
277,6001442400,83.7,2.2985,94538
278,6001442500,84.6,2.0696,94538
279,6001442601,84.7,2.9606,94536
280,6001442602,83.0,2.0558,94536
281,6001442700,84.4,2.151,94536
282,6001442800,86.4,2.8513,94538
283,6001442900,84.6,2.2867,94560
284,6001443001,78.6,1.6424,94538
285,6001443002,79.4,1.3312,94538
286,6001443102,81.8,1.1928,94539
287,6001443103,90.0,3.8711,94539
288,6001443105,81.8,1.358,94539
289,6001443301,81.3,1.7614,95035
290,6001443321,84.0,3.9018,94539
291,6001443322,81.8,1.6840000000000002,94539
292,6001444100,85.9,2.1939,94560
293,6001444200,82.9,2.0358,94560
294,6001444301,83.0,2.9319,94560
295,6001444302,81.3,3.2826,94560
296,6001444400,83.6,2.5422,94560
297,6001444500,84.0,2.5409,94560
298,6001444601,80.7,1.3301,94560
299,6001444602,81.3,1.4423,94538
300,6001450102,80.4,2.1577,94568
301,6001450200,82.2,2.6510000000000002,94568
302,6001450300,83.6,3.3575,94568
303,6001450400,81.1,1.6048,94568
304,6001450501,83.5,2.4227,94568
305,6001450502,82.4,2.2861,94568
306,6001450602,83.9,1.5031,94588
307,6001450603,80.8,1.4762,94588
308,6001450604,86.5,2.6268,94588
309,6001450605,83.1,1.9263,94588
310,6001450606,83.0,1.2769,94566
311,6001450607,82.8,1.8551,94566
312,6001450701,87.4,3.1672,94539
313,6001450741,83.8,1.5325,94566
314,6001450742,85.4,1.9863,94566
315,6001450743,81.3,1.5372,94588
316,6001450744,83.9,2.9237,94566
317,6001450746,81.8,1.4613,94566
318,6001450750,81.7,2.6256,94568
319,6001450751,81.3,1.7593,94551
320,6001451101,80.7,1.4664,94514
321,6001451102,82.8,1.765,94550
322,6001451201,78.9,1.5309,94551
323,6001451202,79.8,2.1724,94551
324,6001451300,81.9,2.5822,94588
325,6001451401,82.3,1.4736,94551
326,6001451403,78.6,1.5545,94551
327,6001451404,79.9,2.5551,94551
328,6001451501,81.9,1.7341,94550
329,6001451503,80.5,1.6313,94550
330,6001451504,81.4,1.6416,94551
331,6001451505,82.3,2.0959,94550
332,6001451506,78.3,3.2654,94550
333,6001451601,82.5,1.3516,94551
334,6001451602,80.9,1.1529,94550
335,6001451701,79.9,2.1163,94550
336,6001451703,83.4,2.1707,94550
337,6001451704,81.3,1.6034,94550
338,6003010000,80.4,2.5262,96120
339,6005000101,76.8,2.6804,95689
340,6005000102,79.8,1.5126,95646
341,6005000200,79.6,1.8333,95689
342,6005000301,82.3,1.3326,95640
343,6005000303,84.4,2.0580000000000003,95685
344,6005000304,77.3,1.9997,95640
345,6005000401,76.8,1.2661,95665
346,6005000402,77.8,1.1316,95689
347,6005000500,78.0,1.7494,95640
348,6007000102,79.9,1.5924,95926
349,6007000103,84.5,3.4605,95973
350,6007000104,79.6,1.3265,95926
351,6007000201,78.1,1.2708,95973
352,6007000202,74.7,1.2554,95973
353,6007000300,73.7,1.2037,95926
354,6007000401,79.9,2.8339999999999996,95973
355,6007000402,80.0,1.1603,95973
356,6007000501,80.8,2.2291,95973
357,6007000502,74.5,2.3547,95926
358,6007000601,79.0,1.2935,95926
359,6007000603,79.1,1.6558,95926
360,6007000604,76.7,2.2638,95926
361,6007000700,78.7,1.4495,95927
362,6007000800,81.3,1.4683,95926
363,6007000901,84.6,3.3221,95928
364,6007000903,75.9,1.1481,95928
365,6007000904,80.5,1.2569,95928
366,6007001100,78.5,1.9734,95928
367,6007001200,75.1,1.5172,95928
368,6007001300,77.5,2.502,95928
369,6007001400,78.9,1.2988,95928
370,6007001500,82.4,2.0159,95958
371,6007001600,86.0,3.9186,95942
372,6007001702,77.7,1.6680000000000001,95954
373,6007001703,77.0,1.6332,95954
374,6007001704,73.7,3.2345,95954
375,6007001800,75.6,1.3749,95969
376,6007002000,78.5,1.3627,95969
377,6007002100,76.4,1.3943,95969
378,6007002200,79.8,0.9047,95965
379,6007002300,76.5,1.1585,95965
380,6007002400,76.7,2.0742,95941
381,6007002500,76.0,1.4751,95965
382,6007002601,79.4,2.0284,95966
383,6007002602,78.8,1.8379,95966
384,6007002700,75.2,1.1376,95966
385,6007002800,70.3,1.4073,95965
386,6007002900,71.7,2.1475,95965
387,6007003001,73.0,2.5326,95966
388,6007003002,72.9,3.2583,95966
389,6007003100,76.4,1.0721,95966
390,6007003200,75.8,1.8516,95968
391,6007003300,79.8,1.9066,95965
392,6007003400,76.5,1.8090000000000002,95917
393,6007003501,76.9,1.1899,95948
394,6007003502,77.2,1.5217,95948
395,6007003600,81.2,2.3614,95917
396,6007003700,74.5,1.6111,95965
397,6009000120,79.5,1.3742,95228
398,6009000121,78.8,1.3741,95222
399,6009000122,86.6,2.3044,95222
400,6009000210,84.9,2.9776,95225
401,6009000220,79.1,1.5965,95252
402,6009000300,75.7,1.2466,95246
403,6009000400,78.8,1.3959,95248
404,6009000501,80.0,1.0979,95224
405,6009000503,84.1,2.7545,0
406,6011000100,80.7,1.4671,95987
407,6011000200,77.9,0.9855,95932
408,6011000300,82.6,1.6565,95979
409,6011000400,83.9,2.2362,95932
410,6011000500,76.0,1.9466,95932
411,6013301000,78.3,1.1457,94513
412,6013302005,77.9,2.2286,94561
413,6013302006,78.8,2.2962,94561
414,6013302007,75.6,1.1443,94561
415,6013302008,84.4,3.2073,94561
416,6013302009,76.3,1.3149,94531
417,6013302010,80.9,2.2389,94561
418,6013303102,83.7,3.5146,94513
419,6013303103,81.0,1.234,94513
420,6013303201,80.3,1.2826,94513
421,6013303202,79.5,1.3926,94513
422,6013303203,82.5,1.4468,94513
423,6013303204,79.9,1.5139,94513
424,6013303205,83.6,1.7687,94513
425,6013304002,77.8,1.9765,94513
426,6013304003,81.2,1.4733,94505
427,6013304005,81.0,1.8948,94505
428,6013305000,72.9,1.2309999999999999,94565
429,6013306002,79.2,2.0457,94561
430,6013306003,73.8,1.3469,94509
431,6013306004,73.6,1.4173,94509
432,6013307101,79.8,2.5548,94509
433,6013307102,76.1,1.4933,94509
434,6013307201,75.9,1.1537,94565
435,6013307202,71.8,2.6798,94509
436,6013307204,75.5,1.5825,94509
437,6013307205,78.7,1.1412,94509
438,6013308001,78.3,1.547,94531
439,6013308002,77.3,1.4281,94509
440,6013309000,78.0,2.0189,94565
441,6013310000,79.6,2.1773,94565
442,6013311000,76.6,1.6513,94565
443,6013312000,71.6,2.0828,94565
444,6013313101,79.6,1.5784,94565
445,6013313102,77.4,2.151,94565
446,6013313103,77.8,1.2131,94509
447,6013313203,81.6,3.0618,94565
448,6013313204,79.5,1.5075,94565
449,6013313205,80.9,1.8657,94565
450,6013313206,78.1,2.454,94565
451,6013314102,78.7,2.1192,94565
452,6013314103,77.5,1.2266,94565
453,6013314104,77.1,1.9329,94565
454,6013314200,77.9,1.7608,94565
455,6013315000,78.7,2.0422,94553
456,6013317000,76.2,2.1981,94553
457,6013318000,76.9,1.4308,94553
458,6013319000,78.2,0.9495,94553
459,6013320001,79.4,1.4584,94553
460,6013320003,81.5,1.9432,94553
461,6013320004,81.8,1.7197,94520
462,6013321101,80.0,1.4229,94553
463,6013321102,81.9,1.2578,94523
464,6013321103,84.5,1.7151,94553
465,6013321200,83.9,2.9616,94523
466,6013322000,82.8,1.4414,94523
467,6013323000,82.0,1.6006,94523
468,6013324001,86.1,3.8982,94523
469,6013324002,80.3,1.3785,94523
470,6013325000,78.9,1.3568,94523
471,6013326000,82.5,1.423,94523
472,6013327000,76.8,1.2161,94523
473,6013328000,78.3,2.3215,94520
474,6013329000,80.2,1.6695,94520
475,6013330000,80.6,1.3874,94520
476,6013331000,78.7,1.2534,94519
477,6013332000,81.0,1.3532,94519
478,6013333101,86.2,3.3761,94521
479,6013333102,80.9,1.8841,94521
480,6013333200,79.7,1.5673,94521
481,6013334001,73.2,1.1407,94521
482,6013334004,79.7,1.0698,94521
483,6013334006,84.1,1.9791,94521
484,6013334200,83.0,0.9005,94595
485,6013335000,80.2,1.7905,94519
486,6013336101,77.1,2.7427,94520
487,6013336102,77.1,2.3782,94520
488,6013336201,79.4,1.5248,94520
489,6013336202,75.8,3.9477,94520
490,6013337100,82.4,1.7469,94518
491,6013337200,79.1,1.1027,94518
492,6013337300,84.0,1.7293,94598
493,6013338101,78.2,1.6781,94520
494,6013338102,82.1,1.7628,94518
495,6013338201,80.8,1.6048,94598
496,6013338203,84.7,3.1541,94598
497,6013338204,85.2,1.8649,94597
498,6013338301,82.6,2.0821,94598
499,6013338302,85.7,1.5196,94598
500,6013339001,79.9,2.3915,94596
501,6013339002,86.8,2.3718,94596
502,6013340001,80.5,1.1443,94596
503,6013340002,82.1,1.1259,94549
504,6013341000,81.1,1.1857,94549
505,6013343001,85.0,1.9986,94596
506,6013343002,82.1,1.1141,94598
507,6013343003,83.0,1.8869,94598
508,6013345101,82.6,1.9219,94583
509,6013345102,80.8,1.2783,94583
510,6013345103,82.9,1.5937,94582
511,6013345105,88.3,3.2431,94583
512,6013345111,83.4,2.0763,94583
513,6013345113,86.4,3.1682,94582
514,6013345114,84.7,1.5539,94583
515,6013345115,88.0,3.6346,94583
516,6013345116,83.5,2.6093,94583
517,6013345202,87.8,2.5871,94583
518,6013345203,85.4,1.6234,94526
519,6013345204,84.1,3.7076,94583
520,6013346101,83.5,1.7381,94507
521,6013346102,84.5,1.4757,94507
522,6013346201,84.0,3.8099,94507
523,6013346203,82.3,1.6364,94526
524,6013346204,81.3,1.8326,94526
525,6013347000,86.3,2.3846,94549
526,6013348000,84.2,1.8114,94549
527,6013349000,85.3,1.6658,94549
528,6013350000,87.0,3.1814,94549
529,6013351200,83.3,1.8055,94549
530,6013352101,83.5,1.9822,94575
531,6013352102,86.3,1.6141,94556
532,6013352201,85.8,3.2017,94556
533,6013353001,86.9,2.0253,94611
534,6013353002,86.9,1.5830000000000002,94563
535,6013354001,81.1,1.0157,94563
536,6013354002,88.4,1.6438,94549
537,6013355107,77.7,1.0701,94513
538,6013355108,78.2,1.9604,94531
539,6013355109,81.8,1.8507,94509
540,6013355110,75.1,2.9958,94531
541,6013355111,80.6,2.7485,94531
542,6013355112,85.0,3.4854,94551
543,6013355113,81.0,1.5771,94526
544,6013355114,85.0,1.9003,94582
545,6013355115,81.2,3.1269,94582
546,6013355116,81.1,3.4619,94588
547,6013355200,81.4,2.8618,94519
548,6013355301,81.4,1.2512,94517
549,6013355302,83.7,1.6055,94598
550,6013355304,84.7,2.0944,94565
551,6013355306,80.7,0.9907,94598
552,6013356001,85.6,3.3212,94572
553,6013356002,79.5,1.3445,94553
554,6013357000,76.0,1.4994,94553
555,6013358000,78.4,1.6205,94547
556,6013359102,83.6,2.4515,94564
557,6013359103,81.9,1.9909999999999999,94564
558,6013359104,80.9,1.6141,94547
559,6013359105,84.7,3.3738,94547
560,6013359202,81.0,1.6151,94547
561,6013359203,82.2,2.3915,94572
562,6013359204,82.5,2.0595,94547
563,6013360101,79.9,1.3664,94564
564,6013360102,83.8,2.2698,94564
565,6013360200,77.9,1.5257,94803
566,6013361000,82.2,2.0393,94806
567,6013362000,84.3,2.3932,94805
568,6013363000,77.0,2.351,94803
569,6013364002,77.8,1.2142,94564
570,6013365002,77.1,2.1944,94801
571,6013365003,79.4,1.7878,94806
572,6013366001,77.2,1.7868,94806
573,6013366002,83.4,2.9382,94806
574,6013367100,79.4,1.5618,94806
575,6013367200,84.0,3.4014,94806
576,6013368001,78.6,2.0441,94806
577,6013368002,75.9,1.7473,94806
578,6013369001,77.0,1.2026,94806
579,6013369002,77.6,1.4343,94803
580,6013370000,79.0,1.9384,94805
581,6013371000,76.7,1.5961,94805
582,6013372000,80.6,1.8923,94805
583,6013373000,77.6,2.3996,94801
584,6013374000,78.2,1.5726,94805
585,6013375000,75.9,1.7690000000000001,94801
586,6013376000,75.0,1.7777,94802
587,6013377000,75.3,1.2492,94801
588,6013379000,73.0,1.669,94804
589,6013380000,80.5,2.9167,94850
590,6013381000,76.4,1.5195,94804
591,6013382000,75.1,1.1867,94530
592,6013383000,80.1,1.4534,94804
593,6013384000,84.5,1.5132,94805
594,6013385100,86.4,2.1743,94530
595,6013386000,82.9,1.7806,94804
596,6013387000,81.1,1.5938,94530
597,6013388000,81.2,1.5069,94530
598,6013389100,81.4,1.9529,94530
599,6013389200,79.3,3.779,94530
600,6013390100,87.3,2.6143,94530
601,6013390200,85.6,1.6654,94707
602,6013391000,90.0,2.6069999999999998,94530
